WaveLength,Module1,Min%, Max%, Modue2,Min%, Max%
400,323.0572,-5.00,5.00,285.1433,-5.00,5.00,
401,329.3451,-5.00,5.00,290.9670,-5.00,5.00,
402,336.0568,-5.00,5.00,302.0061,-5.00,5.00,
403,341.9128,-5.00,5.00,307.6021,-5.00,5.00,
404,347.7362,-5.00,5.00,312.2033,-5.00,5.00,
405,360.2216,-5.00,5.00,317.9062,-5.00,5.00,
406,366.5198,-5.00,5.00,329.1154,-5.00,5.00,
407,372.3330,-5.00,5.00,335.1328,-5.00,5.00,
408,378.4622,-5.00,5.00,340.3318,-5.00,5.00,
409,390.7467,-5.00,5.00,345.3489,-5.00,5.00,
410,397.1335,-5.00,5.00,350.9149,-5.00,5.00,
411,402.9804,-5.00,5.00,360.4105,-5.00,5.00,
412,408.1320,-5.00,5.00,365.3563,-5.00,5.00,
413,413.3780,-5.00,5.00,369.8407,-5.00,5.00,
414,424.3490,-5.00,5.00,374.1389,-5.00,5.00,
415,429.5500,-5.00,5.00,384.3629,-5.00,5.00,
416,434.5643,-5.00,5.00,388.8239,-5.00,5.00,
417,439.6823,-5.00,5.00,394.4794,-5.00,5.00,
418,451.5784,-5.00,5.00,400.6204,-5.00,5.00,
419,457.4310,-5.00,5.00,406.1432,-5.00,5.00,
420,462.0077,-5.00,5.00,416.5337,-5.00,5.00,
421,467.2625,-5.00,5.00,420.7500,-5.00,5.00,
422,471.4522,-5.00,5.00,424.7952,-5.00,5.00,
423,479.4992,-5.00,5.00,428.4139,-5.00,5.00,
424,483.2619,-5.00,5.00,435.5146,-5.00,5.00,
425,486.8841,-5.00,5.00,438.4957,-5.00,5.00,
426,490.7104,-5.00,5.00,442.8489,-5.00,5.00,
427,498.9272,-5.00,5.00,446.4703,-5.00,5.00,
428,501.5927,-5.00,5.00,451.0226,-5.00,5.00,
429,506.0060,-5.00,5.00,459.0688,-5.00,5.00,
430,509.3168,-5.00,5.00,462.5128,-5.00,5.00,
431,512.8776,-5.00,5.00,466.4470,-5.00,5.00,
432,520.2832,-5.00,5.00,469.6399,-5.00,5.00,
433,524.2481,-5.00,5.00,476.5802,-5.00,5.00,
434,528.4075,-5.00,5.00,480.6486,-5.00,5.00,
435,532.7615,-5.00,5.00,483.7832,-5.00,5.00,
436,542.5979,-5.00,5.00,487.9739,-5.00,5.00,
437,546.5244,-5.00,5.00,492.3142,-5.00,5.00,
438,552.3408,-5.00,5.00,502.2641,-5.00,5.00,
439,557.1808,-5.00,5.00,507.2030,-5.00,5.00,
440,566.6169,-5.00,5.00,512.5362,-5.00,5.00,
441,571.6658,-5.00,5.00,517.5135,-5.00,5.00,
442,576.3995,-5.00,5.00,526.6155,-5.00,5.00,
443,582.1544,-5.00,5.00,531.8306,-5.00,5.00,
444,586.7314,-5.00,5.00,535.5650,-5.00,5.00,
445,598.0453,-5.00,5.00,540.3787,-5.00,5.00,
446,604.0739,-5.00,5.00,550.5635,-5.00,5.00,
447,611.5151,-5.00,5.00,556.5840,-5.00,5.00,
448,619.9198,-5.00,5.00,565.8796,-5.00,5.00,
449,642.3569,-5.00,5.00,576.4230,-5.00,5.00,
450,652.5139,-5.00,5.00,586.8003,-5.00,5.00,
451,659.4548,-5.00,5.00,602.1488,-5.00,5.00,
452,663.7103,-5.00,5.00,603.3484,-5.00,5.00,
453,663.0669,-5.00,5.00,604.0482,-5.00,5.00,
454,663.4110,-5.00,5.00,604.7130,-5.00,5.00,
455,666.3043,-5.00,5.00,610.2157,-5.00,5.00,
456,670.7235,-5.00,5.00,615.1030,-5.00,5.00,
457,677.6753,-5.00,5.00,621.3438,-5.00,5.00,
458,691.7191,-5.00,5.00,627.5036,-5.00,5.00,
459,697.7645,-5.00,5.00,637.8827,-5.00,5.00,
460,703.5989,-5.00,5.00,643.2311,-5.00,5.00,
461,708.4095,-5.00,5.00,648.3240,-5.00,5.00,
462,720.8060,-5.00,5.00,653.4763,-5.00,5.00,
463,726.5297,-5.00,5.00,666.2043,-5.00,5.00,
464,733.0383,-5.00,5.00,671.3995,-5.00,5.00,
465,738.5359,-5.00,5.00,678.2145,-5.00,5.00,
466,756.7126,-5.00,5.00,688.0685,-5.00,5.00,
467,768.8211,-5.00,5.00,698.2000,-5.00,5.00,
468,776.9902,-5.00,5.00,715.3977,-5.00,5.00,
469,783.1403,-5.00,5.00,719.8172,-5.00,5.00,
470,790.7047,-5.00,5.00,721.4033,-5.00,5.00,
471,798.1429,-5.00,5.00,724.9692,-5.00,5.00,
472,806.4135,-5.00,5.00,740.8503,-5.00,5.00,
473,814.9098,-5.00,5.00,746.0648,-5.00,5.00,
474,819.1621,-5.00,5.00,745.6808,-5.00,5.00,
475,807.8130,-5.00,5.00,740.8504,-5.00,5.00,
476,800.4020,-5.00,5.00,726.8593,-5.00,5.00,
477,794.2601,-5.00,5.00,723.9717,-5.00,5.00,
478,791.3750,-5.00,5.00,725.1638,-5.00,5.00,
479,793.6593,-5.00,5.00,727.6771,-5.00,5.00,
480,797.6514,-5.00,5.00,732.3994,-5.00,5.00,
481,804.4626,-5.00,5.00,746.3040,-5.00,5.00,
482,813.5948,-5.00,5.00,753.4266,-5.00,5.00,
483,823.4832,-5.00,5.00,759.7607,-5.00,5.00,
484,823.3542,-5.00,5.00,759.9101,-5.00,5.00,
485,817.8473,-5.00,5.00,750.7202,-5.00,5.00,
486,809.2971,-5.00,5.00,743.1086,-5.00,5.00,
487,798.6047,-5.00,5.00,737.4702,-5.00,5.00,
488,793.9722,-5.00,5.00,733.9501,-5.00,5.00,
489,793.4210,-5.00,5.00,734.0299,-5.00,5.00,
490,794.4587,-5.00,5.00,736.7074,-5.00,5.00,
491,796.5045,-5.00,5.00,740.1874,-5.00,5.00,
492,801.7721,-5.00,5.00,744.0508,-5.00,5.00,
493,801.5040,-5.00,5.00,742.8893,-5.00,5.00,
494,797.8351,-5.00,5.00,739.4445,-5.00,5.00,
495,795.0994,-5.00,5.00,736.8819,-5.00,5.00,
496,790.6948,-5.00,5.00,734.7379,-5.00,5.00,
497,789.9945,-5.00,5.00,733.4714,-5.00,5.00,
498,789.3141,-5.00,5.00,731.6914,-5.00,5.00,
499,789.1255,-5.00,5.00,730.1157,-5.00,5.00,
500,789.4531,-5.00,5.00,729.7617,-5.00,5.00,
501,790.6848,-5.00,5.00,729.6917,-5.00,5.00,
502,793.0139,-5.00,5.00,730.7589,-5.00,5.00,
503,792.6662,-5.00,5.00,731.8259,-5.00,5.00,
504,794.7120,-5.00,5.00,732.8482,-5.00,5.00,
505,796.0129,-5.00,5.00,733.3069,-5.00,5.00,
506,796.5691,-5.00,5.00,737.2258,-5.00,5.00,
507,798.2820,-5.00,5.00,738.8911,-5.00,5.00,
508,800.1885,-5.00,5.00,739.9381,-5.00,5.00,
509,802.5565,-5.00,5.00,741.5882,-5.00,5.00,
510,803.8819,-5.00,5.00,745.9152,-5.00,5.00,
511,806.5573,-5.00,5.00,749.6536,-5.00,5.00,
512,807.2869,-5.00,5.00,751.5824,-5.00,5.00,
513,810.5329,-5.00,5.00,753.0927,-5.00,5.00,
514,811.1780,-5.00,5.00,754.8918,-5.00,5.00,
515,813.0489,-5.00,5.00,756.3521,-5.00,5.00,
516,814.4235,-5.00,5.00,756.7408,-5.00,5.00,
517,818.0656,-5.00,5.00,757.6776,-5.00,5.00,
518,819.2117,-5.00,5.00,758.4549,-5.00,5.00,
519,820.2288,-5.00,5.00,760.7822,-5.00,5.00,
520,821.7171,-5.00,5.00,761.2207,-5.00,5.00,
521,821.9353,-5.00,5.00,764.2202,-5.00,5.00,
522,825.5369,-5.00,5.00,765.1172,-5.00,5.00,
523,827.5854,-5.00,5.00,771.9888,-5.00,5.00,
524,829.4057,-5.00,5.00,775.4930,-5.00,5.00,
525,832.0245,-5.00,5.00,779.1262,-5.00,5.00,
526,840.7020,-5.00,5.00,785.4813,-5.00,5.00,
527,846.5321,-5.00,5.00,790.8848,-5.00,5.00,
528,851.8344,-5.00,5.00,800.3071,-5.00,5.00,
529,853.3742,-5.00,5.00,801.4263,-5.00,5.00,
530,849.8560,-5.00,5.00,799.6157,-5.00,5.00,
531,847.0154,-5.00,5.00,796.5365,-5.00,5.00,
532,845.7649,-5.00,5.00,793.3028,-5.00,5.00,
533,844.6336,-5.00,5.00,792.2133,-5.00,5.00,
534,842.4626,-5.00,5.00,791.4869,-5.00,5.00,
535,840.4740,-5.00,5.00,789.8500,-5.00,5.00,
536,839.5319,-5.00,5.00,786.4217,-5.00,5.00,
537,837.5833,-5.00,5.00,786.5062,-5.00,5.00,
538,837.8610,-5.00,5.00,785.2871,-5.00,5.00,
539,839.5765,-5.00,5.00,786.8297,-5.00,5.00,
540,842.1752,-5.00,5.00,789.7206,-5.00,5.00,
541,843.4310,-5.00,5.00,795.6858,-5.00,5.00,
542,844.9879,-5.00,5.00,796.9593,-5.00,5.00,
543,844.0032,-5.00,5.00,796.6459,-5.00,5.00,
544,843.0295,-5.00,5.00,796.2529,-5.00,5.00,
545,843.8771,-5.00,5.00,796.7553,-5.00,5.00,
546,842.4774,-5.00,5.00,796.9495,-5.00,5.00,
547,842.7844,-5.00,5.00,796.0240,-5.00,5.00,
548,842.9688,-5.00,5.00,796.5365,-5.00,5.00,
549,844.3114,-5.00,5.00,796.1435,-5.00,5.00,
550,844.3851,-5.00,5.00,796.1186,-5.00,5.00,
551,847.9125,-5.00,5.00,797.9144,-5.00,5.00,
552,849.6967,-5.00,5.00,797.7254,-5.00,5.00,
553,850.9125,-5.00,5.00,798.9989,-5.00,5.00,
554,852.6465,-5.00,5.00,798.1035,-5.00,5.00,
555,853.1997,-5.00,5.00,798.6707,-5.00,5.00,
556,854.0916,-5.00,5.00,799.4416,-5.00,5.00,
557,854.7544,-5.00,5.00,799.9191,-5.00,5.00,
558,853.8027,-5.00,5.00,800.2275,-5.00,5.00,
559,854.5950,-5.00,5.00,802.2917,-5.00,5.00,
560,853.9720,-5.00,5.00,801.5257,-5.00,5.00,
561,851.3111,-5.00,5.00,802.8191,-5.00,5.00,
562,850.2648,-5.00,5.00,803.0030,-5.00,5.00,
563,844.3307,-5.00,5.00,802.9682,-5.00,5.00,
564,841.3317,-5.00,5.00,801.6153,-5.00,5.00,
565,836.5667,-5.00,5.00,798.5611,-5.00,5.00,
566,834.5437,-5.00,5.00,795.9595,-5.00,5.00,
567,826.7720,-5.00,5.00,793.8401,-5.00,5.00,
568,823.3195,-5.00,5.00,790.9844,-5.00,5.00,
569,821.1566,-5.00,5.00,785.3717,-5.00,5.00,
570,818.4922,-5.00,5.00,783.0129,-5.00,5.00,
571,816.3736,-5.00,5.00,779.6936,-5.00,5.00,
572,815.1132,-5.00,5.00,777.3993,-5.00,5.00,
573,814.4830,-5.00,5.00,773.4671,-5.00,5.00,
574,813.6643,-5.00,5.00,772.7754,-5.00,5.00,
575,811.9969,-5.00,5.00,770.6945,-5.00,5.00,
576,811.1184,-5.00,5.00,769.1414,-5.00,5.00,
577,812.6569,-5.00,5.00,767.9316,-5.00,5.00,
578,811.9968,-5.00,5.00,767.8420,-5.00,5.00,
579,810.9249,-5.00,5.00,767.6278,-5.00,5.00,
580,809.8381,-5.00,5.00,768.0311,-5.00,5.00,
581,809.1085,-5.00,5.00,767.6030,-5.00,5.00,
582,808.7710,-5.00,5.00,768.6437,-5.00,5.00,
583,807.3217,-5.00,5.00,768.1357,-5.00,5.00,
584,807.0835,-5.00,5.00,767.8917,-5.00,5.00,
585,806.1106,-5.00,5.00,766.8956,-5.00,5.00,
586,805.9915,-5.00,5.00,766.4824,-5.00,5.00,
587,805.3710,-5.00,5.00,766.1435,-5.00,5.00,
588,805.6043,-5.00,5.00,766.2631,-5.00,5.00,
589,805.6738,-5.00,5.00,765.0324,-5.00,5.00,
590,805.5497,-5.00,5.00,764.1306,-5.00,5.00,
591,806.1998,-5.00,5.00,762.6906,-5.00,5.00,
592,804.6909,-5.00,5.00,762.2272,-5.00,5.00,
593,805.5100,-5.00,5.00,761.4598,-5.00,5.00,
594,805.0186,-5.00,5.00,760.9467,-5.00,5.00,
595,803.1870,-5.00,5.00,761.0961,-5.00,5.00,
596,801.1615,-5.00,5.00,760.0347,-5.00,5.00,
597,799.0714,-5.00,5.00,756.4915,-5.00,5.00,
598,795.9881,-5.00,5.00,754.9915,-5.00,5.00,
599,787.7944,-5.00,5.00,753.7007,-5.00,5.00,
600,785.0726,-5.00,5.00,750.8748,-5.00,5.00,
601,782.4101,-5.00,5.00,748.5770,-5.00,5.00,
602,780.8106,-5.00,5.00,746.6230,-5.00,5.00,
603,777.2137,-5.00,5.00,746.6080,-5.00,5.00,
604,775.9518,-5.00,5.00,745.2621,-5.00,5.00,
605,774.3469,-5.00,5.00,742.9542,-5.00,5.00,
606,772.6575,-5.00,5.00,741.7129,-5.00,5.00,
607,768.8856,-5.00,5.00,740.1027,-5.00,5.00,
608,767.9713,-5.00,5.00,737.6797,-5.00,5.00,
609,765.6503,-5.00,5.00,734.4388,-5.00,5.00,
610,764.7159,-5.00,5.00,733.5912,-5.00,5.00,
611,761.3209,-5.00,5.00,731.6415,-5.00,5.00,
612,760.1229,-5.00,5.00,728.6197,-5.00,5.00,
613,758.1145,-5.00,5.00,723.7623,-5.00,5.00,
614,755.9469,-5.00,5.00,722.0815,-5.00,5.00,
615,753.0482,-5.00,5.00,720.0516,-5.00,5.00,
616,751.7752,-5.00,5.00,717.6175,-5.00,5.00,
617,750.2438,-5.00,5.00,713.9363,-5.00,5.00,
618,749.7067,-5.00,5.00,713.1331,-5.00,5.00,
619,746.1609,-5.00,5.00,712.1354,-5.00,5.00,
620,745.8127,-5.00,5.00,710.7185,-5.00,5.00,
621,743.7189,-5.00,5.00,709.1321,-5.00,5.00,
622,743.0226,-5.00,5.00,706.5927,-5.00,5.00,
623,740.1873,-5.00,5.00,707.5754,-5.00,5.00,
624,738.5407,-5.00,5.00,705.6696,-5.00,5.00,
625,736.9487,-5.00,5.00,705.5449,-5.00,5.00,
626,734.8394,-5.00,5.00,704.2377,-5.00,5.00,
627,731.8044,-5.00,5.00,703.8884,-5.00,5.00,
628,730.2171,-5.00,5.00,703.2098,-5.00,5.00,
629,729.4358,-5.00,5.00,701.3935,-5.00,5.00,
630,727.8384,-5.00,5.00,701.9325,-5.00,5.00,
631,724.6882,-5.00,5.00,700.8796,-5.00,5.00,
632,723.2748,-5.00,5.00,699.2279,-5.00,5.00,
633,720.3879,-5.00,5.00,694.8812,-5.00,5.00,
634,719.3824,-5.00,5.00,693.4539,-5.00,5.00,
635,714.9221,-5.00,5.00,690.6241,-5.00,5.00,
636,712.5969,-5.00,5.00,688.8921,-5.00,5.00,
637,711.3474,-5.00,5.00,684.1801,-5.00,5.00,
638,707.7820,-5.00,5.00,681.9637,-5.00,5.00,
639,705.9147,-5.00,5.00,679.2529,-5.00,5.00,
640,704.3908,-5.00,5.00,677.2009,-5.00,5.00,
641,702.8168,-5.00,5.00,674.6846,-5.00,5.00,
642,701.1180,-5.00,5.00,672.5078,-5.00,5.00,
643,699.2494,-5.00,5.00,671.9087,-5.00,5.00,
644,698.4919,-5.00,5.00,670.0769,-5.00,5.00,
645,698.5069,-5.00,5.00,669.5679,-5.00,5.00,
646,697.1365,-5.00,5.00,669.7375,-5.00,5.00,
647,696.6731,-5.00,5.00,670.3314,-5.00,5.00,
648,696.4438,-5.00,5.00,671.2148,-5.00,5.00,
649,696.5235,-5.00,5.00,670.9203,-5.00,5.00,
650,691.5746,-5.00,5.00,670.0919,-5.00,5.00,
651,687.1931,-5.00,5.00,667.2523,-5.00,5.00,
652,684.0474,-5.00,5.00,661.0987,-5.00,5.00,
653,681.2604,-5.00,5.00,659.5962,-5.00,5.00,
654,676.4687,-5.00,5.00,658.2834,-5.00,5.00,
655,673.4316,-5.00,5.00,656.0023,-5.00,5.00,
656,672.5789,-5.00,5.00,654.2051,-5.00,5.00,
657,670.5640,-5.00,5.00,652.4279,-5.00,5.00,
658,668.8631,-5.00,5.00,651.0700,-5.00,5.00,
659,667.7709,-5.00,5.00,650.2113,-5.00,5.00,
660,668.3293,-5.00,5.00,648.8683,-5.00,5.00,
661,668.3794,-5.00,5.00,649.3325,-5.00,5.00,
662,669.7410,-5.00,5.00,648.1843,-5.00,5.00,
663,669.4268,-5.00,5.00,648.3989,-5.00,5.00,
664,669.5565,-5.00,5.00,646.6514,-5.00,5.00,
665,670.4791,-5.00,5.00,646.4717,-5.00,5.00,
666,669.6961,-5.00,5.00,645.8824,-5.00,5.00,
667,669.9755,-5.00,5.00,644.8040,-5.00,5.00,
668,669.0477,-5.00,5.00,643.0314,-5.00,5.00,
669,667.4216,-5.00,5.00,641.8928,-5.00,5.00,
670,663.0270,-5.00,5.00,640.0851,-5.00,5.00,
671,660.3578,-5.00,5.00,638.6268,-5.00,5.00,
672,655.4980,-5.00,5.00,632.4088,-5.00,5.00,
673,645.2920,-5.00,5.00,628.9572,-5.00,5.00,
674,641.6830,-5.00,5.00,624.4563,-5.00,5.00,
675,636.7554,-5.00,5.00,618.2410,-5.00,5.00,
676,633.4903,-5.00,5.00,614.8881,-5.00,5.00,
677,628.6599,-5.00,5.00,612.7844,-5.00,5.00,
678,625.9675,-5.00,5.00,610.5906,-5.00,5.00,
679,623.4342,-5.00,5.00,607.7769,-5.00,5.00,
680,621.8364,-5.00,5.00,606.5723,-5.00,5.00,
681,618.1127,-5.00,5.00,606.0475,-5.00,5.00,
682,616.5892,-5.00,5.00,605.9226,-5.00,5.00,
683,614.4581,-5.00,5.00,604.3531,-5.00,5.00,
684,612.0729,-5.00,5.00,601.5540,-5.00,5.00,
685,604.1187,-5.00,5.00,598.1498,-5.00,5.00,
686,600.5366,-5.00,5.00,594.0553,-5.00,5.00,
687,596.4457,-5.00,5.00,587.0753,-5.00,5.00,
688,593.1815,-5.00,5.00,583.5048,-5.00,5.00,
689,587.6835,-5.00,5.00,581.3543,-5.00,5.00,
690,584.5427,-5.00,5.00,577.4282,-5.00,5.00,
691,581.7904,-5.00,5.00,570.0896,-5.00,5.00,
692,578.1800,-5.00,5.00,566.1443,-5.00,5.00,
693,572.1996,-5.00,5.00,561.4943,-5.00,5.00,
694,568.2135,-5.00,5.00,556.4641,-5.00,5.00,
695,564.2268,-5.00,5.00,549.1594,-5.00,5.00,
696,561.0003,-5.00,5.00,545.2916,-5.00,5.00,
697,554.4009,-5.00,5.00,542.2230,-5.00,5.00,
698,552.0058,-5.00,5.00,536.6097,-5.00,5.00,
699,550.0604,-5.00,5.00,534.8651,-5.00,5.00,
700,544.9390,-5.00,5.00,533.0804,-5.00,5.00,
701,541.6074,-5.00,5.00,530.6556,-5.00,5.00,
702,538.9659,-5.00,5.00,525.4904,-5.00,5.00,
703,536.3292,-5.00,5.00,523.1601,-5.00,5.00,
704,532.1760,-5.00,5.00,521.2797,-5.00,5.00,
705,530.0591,-5.00,5.00,519.9843,-5.00,5.00,
706,528.8179,-5.00,5.00,517.0683,-5.00,5.00,
707,527.2713,-5.00,5.00,516.5931,-5.00,5.00,
708,524.8738,-5.00,5.00,515.2225,-5.00,5.00,
709,523.7625,-5.00,5.00,514.8873,-5.00,5.00,
710,523.1868,-5.00,5.00,515.4426,-5.00,5.00,
711,523.0266,-5.00,5.00,514.7173,-5.00,5.00,
712,521.8953,-5.00,5.00,514.7673,-5.00,5.00,
713,521.6499,-5.00,5.00,513.4166,-5.00,5.00,
714,519.4271,-5.00,5.00,511.3556,-5.00,5.00,
715,514.9959,-5.00,5.00,508.5889,-5.00,5.00,
716,510.4537,-5.00,5.00,504.7562,-5.00,5.00,
717,504.7638,-5.00,5.00,495.0322,-5.00,5.00,
718,498.5915,-5.00,5.00,487.4583,-5.00,5.00,
719,484.3995,-5.00,5.00,480.3483,-5.00,5.00,
720,477.2982,-5.00,5.00,472.7525,-5.00,5.00,
721,471.1077,-5.00,5.00,459.4292,-5.00,5.00,
722,461.8279,-5.00,5.00,455.1937,-5.00,5.00,
723,458.6052,-5.00,5.00,450.5469,-5.00,5.00,
724,457.0162,-5.00,5.00,446.5755,-5.00,5.00,
725,456.1666,-5.00,5.00,446.6556,-5.00,5.00,
726,457.7907,-5.00,5.00,447.1163,-5.00,5.00,
727,459.1599,-5.00,5.00,447.8226,-5.00,5.00,
728,461.3682,-5.00,5.00,451.7287,-5.00,5.00,
729,462.6772,-5.00,5.00,452.6751,-5.00,5.00,
730,467.7120,-5.00,5.00,456.1951,-5.00,5.00,
731,470.1589,-5.00,5.00,457.0462,-5.00,5.00,
732,473.7239,-5.00,5.00,463.3488,-5.00,5.00,
733,475.5111,-5.00,5.00,464.6501,-5.00,5.00,
734,474.9121,-5.00,5.00,465.2658,-5.00,5.00,
735,473.4244,-5.00,5.00,462.5028,-5.00,5.00,
736,470.8081,-5.00,5.00,460.2952,-5.00,5.00,
737,465.9040,-5.00,5.00,459.1289,-5.00,5.00,
738,465.2097,-5.00,5.00,457.8723,-5.00,5.00,
739,464.3756,-5.00,5.00,457.8722,-5.00,5.00,
740,463.8510,-5.00,5.00,458.1426,-5.00,5.00,
741,462.8170,-5.00,5.00,458.0074,-5.00,5.00,
742,462.5023,-5.00,5.00,458.1776,-5.00,5.00,
743,461.3132,-5.00,5.00,456.9611,-5.00,5.00,
744,459.7295,-5.00,5.00,456.3052,-5.00,5.00,
745,457.2511,-5.00,5.00,455.1286,-5.00,5.00,
746,456.5415,-5.00,5.00,452.8303,-5.00,5.00,
747,455.2971,-5.00,5.00,452.3896,-5.00,5.00,
748,454.0476,-5.00,5.00,452.2195,-5.00,5.00,
749,454.0776,-5.00,5.00,452.2545,-5.00,5.00,
750,454.2975,-5.00,5.00,451.1529,-5.00,5.00,
751,452.8130,-5.00,5.00,450.0862,-5.00,5.00,
752,450.6136,-5.00,5.00,449.0896,-5.00,5.00,
753,448.9988,-5.00,5.00,443.9409,-5.00,5.00,
754,447.2039,-5.00,5.00,441.4163,-5.00,5.00,
755,442.9234,-5.00,5.00,439.0968,-5.00,5.00,
756,442.0781,-5.00,5.00,438.2902,-5.00,5.00,
757,441.3129,-5.00,5.00,435.9505,-5.00,5.00,
758,442.0031,-5.00,5.00,436.6419,-5.00,5.00,
759,443.1784,-5.00,5.00,437.3534,-5.00,5.00,
760,443.7836,-5.00,5.00,436.9676,-5.00,5.00,
761,445.3838,-5.00,5.00,439.4626,-5.00,5.00,
762,448.9139,-5.00,5.00,445.6088,-5.00,5.00,
763,474.5826,-5.00,5.00,459.1989,-5.00,5.00,
764,488.7048,-5.00,5.00,483.3826,-5.00,5.00,
765,496.5973,-5.00,5.00,486.3517,-5.00,5.00,
766,481.6801,-5.00,5.00,478.8516,-5.00,5.00,
767,467.2076,-5.00,5.00,465.2558,-5.00,5.00,
768,454.2875,-5.00,5.00,440.4995,-5.00,5.00,
769,443.1335,-5.00,5.00,431.2754,-5.00,5.00,
770,426.4817,-5.00,5.00,424.6900,-5.00,5.00,
771,421.0359,-5.00,5.00,413.8913,-5.00,5.00,
772,416.0787,-5.00,5.00,408.2898,-5.00,5.00,
773,406.0141,-5.00,5.00,403.7406,-5.00,5.00,
774,400.6710,-5.00,5.00,399.7676,-5.00,5.00,
775,396.4843,-5.00,5.00,391.6642,-5.00,5.00,
776,392.7349,-5.00,5.00,388.0710,-5.00,5.00,
777,386.2615,-5.00,5.00,385.4711,-5.00,5.00,
778,384.0211,-5.00,5.00,382.4122,-5.00,5.00,
779,382.1935,-5.00,5.00,381.2684,-5.00,5.00,
780,380.2851,-5.00,5.00,380.0346,-5.00,5.00,
781,379.2780,-5.00,5.00,379.1554,-5.00,5.00,
782,379.6607,-5.00,5.00,379.9647,-5.00,5.00,
783,379.8269,-5.00,5.00,380.4142,-5.00,5.00,
784,380.9599,-5.00,5.00,380.2794,-5.00,5.00,
785,380.5621,-5.00,5.00,380.1445,-5.00,5.00,
786,380.6426,-5.00,5.00,381.3033,-5.00,5.00,
787,383.4774,-5.00,5.00,382.8618,-5.00,5.00,
788,385.6775,-5.00,5.00,383.8521,-5.00,5.00,
789,386.7146,-5.00,5.00,386.5552,-5.00,5.00,
790,386.6844,-5.00,5.00,386.9568,-5.00,5.00,
791,383.2156,-5.00,5.00,384.6842,-5.00,5.00,
792,379.8269,-5.00,5.00,381.6131,-5.00,5.00,
793,376.7500,-5.00,5.00,373.2943,-5.00,5.00,
794,370.3434,-5.00,5.00,370.9703,-5.00,5.00,
795,369.6381,-5.00,5.00,369.3108,-5.00,5.00,
796,370.1317,-5.00,5.00,367.4012,-5.00,5.00,
797,369.7439,-5.00,5.00,367.0862,-5.00,5.00,
798,369.1999,-5.00,5.00,366.9562,-5.00,5.00,
799,368.6457,-5.00,5.00,367.1063,-5.00,5.00,
800,368.9581,-5.00,5.00,365.5263,-5.00,5.00,
801,368.4795,-5.00,5.00,364.5463,-5.00,5.00,
802,368.2024,-5.00,5.00,365.4313,-5.00,5.00,
803,368.2175,-5.00,5.00,366.3663,-5.00,5.00,
804,369.4719,-5.00,5.00,368.0660,-5.00,5.00,
805,374.0253,-5.00,5.00,368.6060,-5.00,5.00,
806,374.5642,-5.00,5.00,370.0607,-5.00,5.00,
807,376.2464,-5.00,5.00,376.7973,-5.00,5.00,
808,383.1199,-5.00,5.00,379.6649,-5.00,5.00,
809,387.6208,-5.00,5.00,382.9170,-5.00,5.00,
810,390.7568,-5.00,5.00,389.9881,-5.00,5.00,
811,394.4109,-5.00,5.00,395.7789,-5.00,5.00,
812,404.7765,-5.00,5.00,402.3511,-5.00,5.00,
813,412.4777,-5.00,5.00,408.3901,-5.00,5.00,
814,418.6281,-5.00,5.00,422.3090,-5.00,5.00,
815,427.0424,-5.00,5.00,432.6635,-5.00,5.00,
816,449.5537,-5.00,5.00,446.3200,-5.00,5.00,
817,468.1465,-5.00,5.00,481.6250,-5.00,5.00,
818,490.6900,-5.00,5.00,506.0621,-5.00,5.00,
819,560.8654,-5.00,5.00,540.2937,-5.00,5.00,
820,624.4844,-5.00,5.00,592.6604,-5.00,5.00,
821,745.6735,-5.00,5.00,833.7842,-5.00,5.00,
822,928.5156,-5.00,5.00,1032.5620,-5.00,5.00,
823,1281.8600,-5.00,5.00,1200.4010,-5.00,5.00,
824,1341.0890,-5.00,5.00,1298.6820,-5.00,5.00,
825,1296.9350,-5.00,5.00,1220.5940,-5.00,5.00,
826,1145.3580,-5.00,5.00,1142.5050,-5.00,5.00,
827,1105.4970,-5.00,5.00,1094.2620,-5.00,5.00,
828,1069.2370,-5.00,5.00,1016.3110,-5.00,5.00,
829,1015.8950,-5.00,5.00,957.9771,-5.00,5.00,
830,867.3245,-5.00,5.00,885.7713,-5.00,5.00,
831,804.1152,-5.00,5.00,763.1490,-5.00,5.00,
832,761.0176,-5.00,5.00,729.8414,-5.00,5.00,
833,733.1129,-5.00,5.00,720.2162,-5.00,5.00,
834,732.1228,-5.00,5.00,723.0641,-5.00,5.00,
835,726.8879,-5.00,5.00,712.1853,-5.00,5.00,
836,709.6843,-5.00,5.00,683.3166,-5.00,5.00,
837,638.8873,-5.00,5.00,641.7480,-5.00,5.00,
838,602.3003,-5.00,5.00,578.9037,-5.00,5.00,
839,575.7311,-5.00,5.00,564.8109,-5.00,5.00,
840,554.9760,-5.00,5.00,558.3024,-5.00,5.00,
841,545.4891,-5.00,5.00,549.2944,-5.00,5.00,
842,528.5125,-5.00,5.00,511.2705,-5.00,5.00,
